16.200750 17.0
16.205750 13.0
16.210750 17.0
16.215750 12.0
16.220750 25.0
16.225750 20.0
16.230750 17.0
16.235750 22.0
16.240750 15.0
16.245750 27.0
16.250750 28.0
16.255750 24.0
16.260750 16.0
16.265750 15.0
16.270750 21.0
16.275750 22.0
16.280750 24.0
16.285750 27.0
16.290750 20.0
16.295750 22.0
16.300750 15.0
16.305750 13.0
16.310750 22.0
16.315750 35.0
16.320750 20.0
16.325750 18.0
16.330750 35.0
16.335750 30.0
16.340750 23.0
16.345750 27.0
16.350750 30.0
16.355750 27.0
16.360750 37.0
16.365750 35.0
16.370750 25.0
16.375750 31.0
16.380750 26.0
16.385750 34.0
16.390750 42.0
16.395750 36.0
16.400750 33.0
16.405750 51.0
16.410750 45.0
16.415750 33.0
16.420750 37.0
16.425750 35.0
16.430750 41.0
16.435750 49.0
16.440750 47.0
16.445750 37.0
16.450750 51.0
16.455750 48.0
16.460750 53.0
16.465750 58.0
16.470750 51.0
16.475750 61.0
16.480750 60.0
16.485750 94.0
16.490750 66.0
16.495750 61.0
16.500750 72.0
16.505750 85.0
16.510750 67.0
16.515750 81.0
16.520750 93.0
16.525750 81.0
16.530750 82.0
16.535750 88.0
16.540750 88.0
16.545750 110.0
16.550750 95.0
16.555750 105.0
16.560750 127.0
16.565750 102.0
16.570750 126.0
16.575750 123.0
16.580750 146.0
16.585750 127.0
16.590750 138.0
16.595750 154.0
16.600750 126.0
16.605750 163.0
16.610750 144.0
16.615750 194.0
16.620750 180.0
16.625750 195.0
16.630750 192.0
16.635750 236.0
16.640750 235.0
16.645750 243.0
16.650750 250.0
16.655750 278.0
16.660750 284.0
16.665750 293.0
16.670750 342.0
16.675750 318.0
16.680750 343.0
16.685750 379.0
16.690750 371.0
16.695750 388.0
16.700750 412.0
16.705750 412.0
16.710750 523.0
16.715750 426.0
16.720750 493.0
16.725750 511.0
16.730750 550.0
16.735750 577.0
16.740750 628.0
16.745750 628.0
16.750750 655.0
16.755750 685.0
16.760750 754.0
16.765750 787.0
16.770750 829.0
16.775750 836.0
16.780750 892.0
16.785750 906.0
16.790750 930.0
16.795750 1011.0
16.800750 1031.0
16.805750 1064.0
16.810750 1142.0
16.815750 1161.0
16.820750 1268.0
16.825750 1287.0
16.830750 1336.0
16.835750 1353.0
16.840750 1444.0
16.845750 1528.0
16.850750 1612.0
16.855750 1657.0
16.860750 1748.0
16.865750 1756.0
16.870750 1730.0
16.875750 1902.0
16.880750 2039.0
16.885750 1945.0
16.890750 2083.0
16.895750 2177.0
16.900750 2256.0
16.905750 2438.0
16.910750 2409.0
16.915750 2571.0
16.920750 2633.0
16.925750 2806.0
16.930750 2841.0
16.935750 3399.0
16.940750 4107.0
16.945750 4245.0
16.950750 4452.0
16.955750 4763.0
16.960750 4789.0
16.965750 5003.0
16.970750 5236.0
16.975750 5554.0
16.980750 5636.0
16.985750 5764.0
16.990750 6353.0
16.995750 6387.0
17.000750 6759.0
17.005750 6949.0
17.010750 7119.0
17.015750 7484.0
17.020750 7590.0
17.025750 8016.0
17.030750 8087.0
17.035750 8481.0
17.040750 8562.0
17.045750 8848.0
17.050750 9156.0
17.055750 9135.0
17.060750 9311.0
17.065750 9480.0
17.070750 9733.0
17.075750 9803.0
17.080750 9938.0
17.085750 9929.0
17.090750 10161.0
17.095750 9960.0
17.100750 10037.0
17.105750 10192.0
17.110750 10022.0
17.115750 10108.0
17.120750 9984.0
17.125750 9767.0
17.130750 9808.0
17.135750 9743.0
17.140750 9580.0
17.145750 9320.0
17.150750 9192.0
17.155750 9031.0
17.160750 8785.0
17.165750 8416.0
17.170750 8104.0
17.175750 8093.0
17.180750 7762.0
17.185750 7467.0
17.190750 7192.0
17.195750 7003.0
17.200750 6814.0
17.205750 6725.0
17.210750 6290.0
17.215750 6167.0
17.220750 5814.0
17.225750 5611.0
17.230750 5327.0
17.235750 5214.0
17.240750 4992.0
17.245750 4718.0
17.250750 4596.0
17.255750 4267.0
17.260750 4220.0
17.265750 4091.0
17.270750 3867.0
17.275750 3656.0
17.280750 3519.0
17.285750 3230.0
17.290750 3269.0
17.295750 3013.0
17.300750 2265.0
17.305750 2149.0
17.310750 2055.0
17.315750 1969.0
17.320750 1991.0
17.325750 1780.0
17.330750 1763.0
17.335750 1673.0
17.340750 1632.0
17.345750 1556.0
17.350750 1408.0
17.355750 1398.0
17.360750 1299.0
17.365750 1290.0
17.370750 1246.0
17.375750 1188.0
17.380750 1153.0
17.385750 1068.0
17.390750 1089.0
17.395750 1065.0
17.400750 1041.0
17.405750 1001.0
17.410750 858.0
17.415750 938.0
17.420750 902.0
17.425750 852.0
17.430750 830.0
17.435750 853.0
17.440750 874.0
17.445750 837.0
17.450750 821.0
17.455750 880.0
17.460750 884.0
17.465750 831.0
17.470750 903.0
17.475750 990.0
17.480750 1089.0
17.485750 1088.0
17.490750 1283.0
17.495750 1326.0
17.500750 1466.0
17.505750 1687.0
17.510750 1958.0
17.515750 2168.0
17.520750 2480.0
17.525750 2962.0
17.530750 3373.0
17.535750 4100.0
17.540750 4896.0
17.545750 5865.0
17.550750 7226.0
17.555750 9157.0
17.560750 11643.0
17.565750 14889.0
17.570750 19933.0
17.575750 27697.0
17.580750 39303.0
17.585750 58243.0
17.590750 77489.0
17.595750 75077.0
17.600750 56181.0
17.605750 40239.0
17.610750 29329.0
17.615750 21963.0
17.620750 16519.0
17.625750 12499.0
17.630750 9681.0
17.635750 7719.0
17.640750 6123.0
17.645750 5023.0
17.650750 4020.0
17.655750 3301.0
17.660750 2776.0
17.665750 2286.0
17.670750 1814.0
17.675750 1610.0
17.680750 1384.0
17.685750 1186.0
17.690750 1036.0
17.695750 849.0
17.700750 720.0
17.705750 636.0
17.710750 566.0
17.715750 498.0
17.720750 449.0
17.725750 384.0
17.730750 346.0
17.735750 311.0
17.740750 251.0
17.745750 207.0
17.750750 199.0
17.755750 175.0
17.760750 174.0
17.765750 156.0
17.770750 139.0
17.775750 136.0
17.780750 123.0
17.785750 110.0
17.790750 97.0
17.795750 92.0
17.800750 92.0
17.805750 82.0
17.810750 64.0
17.815750 70.0
17.820750 61.0
17.825750 59.0
17.830750 58.0
17.835750 61.0
17.840750 54.0
17.845750 46.0
17.850750 43.0
17.855750 45.0
17.860750 39.0
17.865750 45.0
17.870750 37.0
17.875750 43.0
17.880750 34.0
17.885750 33.0
17.890750 32.0
17.895750 39.0
17.900750 24.0
17.905750 26.0
17.910750 38.0
17.915750 25.0
17.920750 31.0
17.925750 31.0
17.930750 27.0
17.935750 27.0
17.940750 25.0
17.945750 21.0
17.950750 23.0
17.955750 24.0
17.960750 23.0
17.965750 30.0
17.970750 14.0
17.975750 20.0
17.980750 14.0
17.985750 22.0
17.990750 20.0
17.995750 22.0
18.000750 22.0
18.005750 20.0
18.010750 12.0
18.015750 17.0
18.020750 11.0
18.025750 22.0
18.030750 20.0
18.035750 18.0
18.040750 15.0
18.045750 15.0
18.050750 12.0
18.055750 11.0
18.060750 14.0
18.065750 11.0
18.070750 7.0
18.075750 11.0
18.080750 7.0
18.085750 12.0
18.090750 12.0
18.095750 8.0
18.100750 5.0
18.105750 11.0
18.110750 13.0
18.115750 13.0
18.120750 13.0
18.125750 12.0
18.130750 10.0
18.135750 11.0
18.140750 9.0
18.145750 17.0
18.150750 5.0
18.155750 13.0
18.160750 10.0
18.165750 11.0
18.170750 4.0
18.175750 14.0
18.180750 6.0
18.185750 10.0
18.190750 7.0
18.195750 9.0
18.200750 13.0
